 #   Flux in [erg/s/Hz/ster] per g IM
 # wel(mu)  emis_tot  emis_c    emis_Si   emis_pol  emi_Dark  emi_vgr   emi_vsi   epah_s+b  ISRF j_v
  1.00E+04  1.04E-16  4.30E-18  1.80E-17  1.91E-18  7.85E-17  2.36E-19  3.43E-18  9.07E-23  3.03E-21
  9.00E+03  1.50E-16  6.19E-18  2.60E-17  2.72E-18  1.12E-16  3.67E-19  4.99E-18  1.36E-22  8.23E-21
  8.00E+03  2.24E-16  9.31E-18  3.94E-17  4.06E-18  1.67E-16  5.98E-19  7.58E-18  2.12E-22  2.21E-20
  7.00E+03  3.53E-16  1.48E-17  6.29E-17  6.39E-18  2.62E-16  1.03E-18  1.20E-17  3.50E-22  5.85E-20
  6.00E+03  5.96E-16  2.52E-17  1.08E-16  1.08E-17  4.41E-16  1.90E-18  2.05E-17  6.22E-22  1.51E-19
  5.50E+03  8.02E-16  3.41E-17  1.46E-16  1.44E-17  5.91E-16  2.67E-18  2.77E-17  8.58E-22  2.41E-19
  5.00E+03  1.11E-15  4.75E-17  2.04E-16  1.99E-17  8.14E-16  3.85E-18  3.82E-17  1.22E-21  3.81E-19
  4.50E+03  1.58E-15  6.85E-17  2.94E-16  2.84E-17  1.16E-15  5.72E-18  5.50E-17  1.78E-21  5.97E-19
  4.00E+03  2.36E-15  1.03E-16  4.42E-16  4.22E-17  1.72E-15  8.83E-18  8.14E-17  2.72E-21  9.22E-19
  3.50E+03  3.69E-15  1.64E-16  7.01E-16  6.60E-17  2.69E-15  1.43E-17  1.29E-16  4.37E-21  1.40E-18
  3.00E+03  6.19E-15  2.79E-16  1.19E-15  1.10E-16  4.48E-15  2.44E-17  2.12E-16  7.47E-21  2.09E-18
  2.50E+03  1.13E-14  5.24E-16  2.21E-15  2.02E-16  8.18E-15  4.51E-17  3.85E-16  1.39E-20  3.03E-18
  2.10E+03  2.02E-14  9.57E-16  3.98E-15  3.60E-16  1.45E-14  7.92E-17  6.75E-16  2.49E-20  3.96E-18
  1.50E+03  5.96E-14  3.00E-15  1.20E-14  1.06E-15  4.25E-14  2.49E-16  1.88E-15  7.38E-20  5.49E-18
  1.38E+03  7.73E-14  3.96E-15  1.56E-14  1.38E-15  5.50E-14  3.28E-16  2.41E-15  9.60E-20  5.76E-18
  1.32E+03  8.92E-14  4.62E-15  1.80E-14  1.59E-15  6.34E-14  3.82E-16  2.75E-15  1.11E-19  5.89E-18
  1.15E+03  1.37E-13  7.33E-15  2.77E-14  2.44E-15  9.69E-14  5.99E-16  4.08E-15  1.73E-19  6.20E-18
  1.00E+03  2.08E-13  1.16E-14  4.22E-14  3.73E-15  1.48E-13  9.32E-16  5.97E-15  2.74E-19  6.36E-18
  9.97E+02  2.10E-13  1.17E-14  4.26E-14  3.76E-15  1.49E-13  9.41E-16  6.02E-15  2.76E-19  6.47E-18
  8.67E+02  3.14E-13  1.83E-14  6.42E-14  5.64E-15  2.22E-13  1.45E-15  8.70E-15  4.39E-19  1.34E-17
  8.50E+02  3.33E-13  1.95E-14  6.80E-14  5.98E-15  2.35E-13  1.54E-15  9.15E-15  4.69E-19  1.48E-17
  7.50E+02  4.80E-13  2.96E-14  9.64E-14  8.67E-15  3.39E-13  2.23E-15  1.24E-14  7.13E-19  2.55E-17
  6.00E+02  8.52E-13  5.81E-14  1.71E-13  1.55E-14  5.97E-13  4.15E-15  2.10E-14  1.51E-18  5.56E-17
  5.50E+02  1.04E-12  7.44E-14  2.04E-13  1.91E-14  7.35E-13  5.21E-15  2.56E-14  2.02E-18  7.13E-17
  5.00E+02  1.33E-12  9.80E-14  2.67E-13  2.43E-14  9.22E-13  6.60E-15  3.15E-14  2.77E-18  9.06E-17
  4.50E+02  1.73E-12  1.33E-13  3.69E-13  3.14E-14  1.18E-12  8.54E-15  3.95E-14  3.89E-18  1.14E-16
  4.00E+02  2.26E-12  1.88E-13  5.03E-13  4.11E-14  1.51E-12  1.12E-14  5.04E-14  5.62E-18  1.42E-16
  3.50E+02  2.91E-12  2.55E-13  7.51E-13  5.14E-14  1.83E-12  1.49E-14  6.58E-14  8.41E-18  1.73E-16
  3.00E+02  3.88E-12  3.78E-13  1.08E-12  6.73E-14  2.31E-12  2.03E-14  8.81E-14  1.30E-17  2.07E-16
  2.75E+02  4.32E-12  4.54E-13  1.26E-12  7.41E-14  2.48E-12  2.40E-14  1.03E-13  1.65E-17  2.25E-16
  2.50E+02  4.74E-12  5.37E-13  1.43E-12  8.04E-14  2.63E-12  2.84E-14  1.23E-13  2.10E-17  2.42E-16
  2.40E+02  4.88E-12  5.81E-13  1.49E-12  8.23E-14  2.65E-12  3.06E-14  1.31E-13  2.32E-17  2.52E-16
  2.00E+02  5.14E-12  7.46E-13  1.63E-12  8.46E-14  2.56E-12  4.12E-14  1.65E-13  3.51E-17  3.10E-16
  1.80E+02  4.92E-12  8.14E-13  1.54E-12  8.05E-14  2.33E-12  4.85E-14  1.87E-13  4.33E-17  3.39E-16
  1.60E+02  4.42E-12  8.84E-13  1.31E-12  7.18E-14  1.95E-12  5.78E-14  2.13E-13  5.36E-17  3.66E-16
  1.50E+02  4.07E-12  9.19E-13  1.15E-12  6.56E-14  1.71E-12  6.32E-14  2.26E-13  5.97E-17  3.78E-16
  1.40E+02  3.55E-12  8.81E-13  9.72E-13  5.62E-14  1.39E-12  6.96E-14  2.42E-13  6.64E-17  3.40E-16
  1.20E+02  2.59E-12  8.33E-13  5.82E-13  3.90E-14  8.11E-13  8.56E-14  2.78E-13  8.20E-17  2.54E-16
  1.00E+02  1.58E-12  5.87E-13  2.49E-13  2.01E-14  3.14E-13  1.08E-13  3.21E-13  1.02E-16  1.84E-16
  9.00E+01  1.20E-12  4.47E-13  1.30E-13  1.29E-14  1.58E-13  1.23E-13  3.44E-13  1.14E-16  1.54E-16
  8.00E+01  9.08E-13  2.86E-13  5.54E-14  6.86E-15  6.00E-14  1.42E-13  3.65E-13  1.28E-16  1.10E-16
  7.50E+01  8.05E-13  2.11E-13  3.32E-14  4.71E-15  3.37E-14  1.53E-13  3.74E-13  1.36E-16  9.23E-17
  7.00E+01  7.31E-13  1.49E-13  1.84E-14  3.07E-15  1.69E-14  1.66E-13  3.80E-13  1.45E-16  7.72E-17
  6.00E+01  6.41E-13  5.36E-14  3.93E-15  9.51E-16  2.75E-15  1.99E-13  3.82E-13  1.65E-16  5.31E-17
  5.00E+01  6.16E-13  1.01E-14  4.32E-16  1.54E-16  1.87E-16  2.48E-13  3.57E-13  1.87E-16  3.57E-17
  4.50E+01  6.15E-13  3.08E-15  9.35E-17  4.31E-17  2.96E-17  2.83E-13  3.29E-13  1.98E-16  2.89E-17
  4.00E+01  6.08E-13  6.21E-16  1.32E-17  7.78E-18  2.78E-18  3.19E-13  2.88E-13  2.10E-16  2.31E-17
  3.50E+01  5.59E-13  7.27E-17  9.45E-19  7.97E-19  1.25E-19  3.23E-13  2.35E-13  2.28E-16  1.82E-17
  3.00E+01  4.10E-13  3.77E-18  2.51E-20  3.42E-20  1.88E-21  2.32E-13  1.78E-13  2.63E-16  1.45E-17
  2.75E+01  3.11E-13  5.37E-19  2.34E-21  4.27E-21  1.25E-22  1.60E-13  1.51E-13  3.07E-16  1.29E-17
  2.50E+01  2.24E-13  4.88E-20  1.30E-22  3.31E-22  4.66E-24  9.78E-14  1.26E-13  4.42E-16  1.14E-17
  2.40E+01  1.96E-13  1.62E-20  3.40E-23  1.02E-22  1.02E-24  7.87E-14  1.17E-13  5.86E-16  1.08E-17
  2.35E+01  1.83E-13  8.99E-21  1.67E-23  5.46E-23  4.57E-25  7.03E-14  1.12E-13  6.75E-16  1.05E-17
  2.32E+01  1.76E-13  6.23E-21  1.07E-23  3.69E-23  2.77E-25  6.57E-14  1.10E-13  7.15E-16  1.03E-17
  2.31E+01  1.74E-13  5.50E-21  9.21E-24  3.23E-23  2.33E-25  6.43E-14  1.09E-13  7.24E-16  1.03E-17
  2.30E+01  1.72E-13  4.86E-21  7.92E-24  2.83E-23  1.96E-25  6.28E-14  1.08E-13  7.31E-16  1.02E-17
  2.25E+01  1.61E-13  2.54E-21  3.63E-24  1.41E-23  8.12E-26  5.60E-14  1.04E-13  7.40E-16  9.93E-18
  2.20E+01  1.51E-13  1.29E-21  1.61E-24  6.85E-24  3.23E-26  5.00E-14  1.01E-13  7.57E-16  9.65E-18
  2.15E+01  1.42E-13  6.33E-22  6.88E-25  3.21E-24  1.22E-26  4.46E-14  9.68E-14  8.06E-16  9.37E-18
  2.12E+01  1.37E-13  4.07E-22  4.04E-25  2.00E-24  6.68E-27  4.16E-14  9.46E-14  8.27E-16  9.21E-18
  2.11E+01  1.35E-13  3.50E-22  3.37E-25  1.70E-24  5.44E-27  4.07E-14  9.40E-14  8.28E-16  9.16E-18
  2.10E+01  1.34E-13  3.01E-22  2.81E-25  1.45E-24  4.42E-27  3.98E-14  9.33E-14  8.26E-16  9.10E-18
  2.08E+01  1.31E-13  2.20E-22  1.93E-25  1.03E-24  2.90E-27  3.80E-14  9.19E-14  8.11E-16  8.99E-18
  2.00E+01  1.20E-13  5.89E-23  4.02E-26  2.54E-25  4.90E-28  3.18E-14  8.70E-14  7.42E-16  8.57E-18
  1.95E+01  1.13E-13  2.45E-23  1.40E-26  9.98E-26  1.49E-28  2.85E-14  8.38E-14  7.82E-16  8.51E-18
  1.90E+01  1.06E-13  9.79E-24  4.56E-27  3.75E-26  4.24E-29  2.55E-14  7.94E-14  9.27E-16  8.44E-18
  1.85E+01  9.78E-14  3.71E-24  1.38E-27  1.33E-26  1.11E-29  2.29E-14  7.37E-14  1.17E-15  8.38E-18
  1.83E+01  9.44E-14  2.49E-24  8.34E-28  8.69E-27  6.35E-30  2.20E-14  7.11E-14  1.26E-15  8.35E-18
  1.82E+01  9.26E-14  2.02E-24  6.46E-28  6.97E-27  4.77E-30  2.15E-14  6.98E-14  1.28E-15  8.33E-18
  1.81E+01  9.06E-14  1.64E-24  4.98E-28  5.58E-27  3.57E-30  2.11E-14  6.82E-14  1.30E-15  8.32E-18
  1.80E+01  8.87E-14  1.33E-24  3.83E-28  4.46E-27  2.66E-30  2.06E-14  6.67E-14  1.30E-15  8.30E-18
  1.75E+01  7.88E-14  4.51E-25  9.67E-29  1.40E-27  5.80E-31  1.86E-14  5.89E-14  1.31E-15  8.22E-18
  1.70E+01  6.91E-14  1.41E-25  2.18E-29  4.05E-28  1.13E-31  1.69E-14  5.06E-14  1.58E-15  8.13E-18
  1.67E+01  6.36E-14  6.83E-26  8.37E-30  1.87E-28  4.07E-32  1.59E-14  4.58E-14  1.85E-15  8.08E-18
  1.65E+01  5.99E-14  4.16E-26  4.30E-30  1.10E-28  0.00E+00  1.53E-14  4.26E-14  1.94E-15  8.04E-18
  1.64E+01  5.80E-14  3.23E-26  3.05E-30  8.41E-29  0.00E+00  1.50E-14  4.11E-14  1.93E-15  8.02E-18
  1.63E+01  5.62E-14  2.50E-26  2.16E-30  6.39E-29  0.00E+00  1.48E-14  3.96E-14  1.89E-15  8.00E-18
  1.61E+01  5.26E-14  1.48E-26  1.05E-30  3.65E-29  0.00E+00  1.42E-14  3.66E-14  1.75E-15  7.96E-18
  1.60E+01  5.09E-14  1.14E-26  7.28E-31  2.74E-29  0.00E+00  1.40E-14  3.52E-14  1.69E-15  7.94E-18
  1.59E+01  4.92E-14  8.68E-27  5.00E-31  2.05E-29  0.00E+00  1.37E-14  3.39E-14  1.64E-15  7.92E-18
  1.58E+01  4.76E-14  6.60E-27  3.42E-31  1.53E-29  0.00E+00  1.35E-14  3.26E-14  1.61E-15  7.90E-18
  1.57E+01  4.61E-14  4.99E-27  2.32E-31  1.14E-29  0.00E+00  1.32E-14  3.13E-14  1.58E-15  7.88E-18
  1.56E+01  4.46E-14  3.77E-27  1.57E-31  8.42E-30  0.00E+00  1.30E-14  3.00E-14  1.54E-15  7.86E-18
  1.54E+01  4.18E-14  2.13E-27  7.09E-32  4.57E-30  0.00E+00  1.26E-14  2.77E-14  1.50E-15  7.82E-18
  1.52E+01  3.93E-14  1.18E-27  3.19E-32  2.42E-30  0.00E+00  1.21E-14  2.56E-14  1.58E-15  7.77E-18
  1.51E+01  3.81E-14  8.75E-28  0.00E+00  1.75E-30  0.00E+00  1.19E-14  2.46E-14  1.62E-15  7.75E-18
  1.50E+01  3.70E-14  6.43E-28  0.00E+00  1.26E-30  0.00E+00  1.17E-14  2.36E-14  1.63E-15  7.73E-18
  1.45E+01  3.23E-14  1.30E-28  0.00E+00  2.28E-31  0.00E+00  1.08E-14  1.95E-14  2.06E-15  7.61E-18
  1.44E+01  3.17E-14  9.34E-29  0.00E+00  1.60E-31  0.00E+00  1.06E-14  1.88E-14  2.28E-15  7.58E-18
  1.43E+01  3.12E-14  6.67E-29  0.00E+00  1.11E-31  0.00E+00  1.05E-14  1.83E-14  2.46E-15  7.56E-18
  1.42E+01  3.07E-14  4.74E-29  0.00E+00  7.73E-32  0.00E+00  1.03E-14  1.78E-14  2.55E-15  7.53E-18
  1.40E+01  3.00E-14  2.36E-29  0.00E+00  3.67E-32  0.00E+00  1.00E-14  1.72E-14  2.78E-15  7.48E-18
  1.38E+01  3.01E-14  1.15E-29  0.00E+00  1.70E-32  0.00E+00  9.71E-15  1.69E-14  3.52E-15  7.43E-18
  1.37E+01  3.07E-14  7.97E-30  0.00E+00  1.15E-32  0.00E+00  9.57E-15  1.69E-14  4.18E-15  7.40E-18
  1.36E+01  3.13E-14  5.49E-30  0.00E+00  7.69E-33  0.00E+00  9.43E-15  1.70E-14  4.85E-15  7.38E-18
  1.35E+01  3.16E-14  3.77E-30  0.00E+00  5.14E-33  0.00E+00  9.30E-15  1.71E-14  5.18E-15  7.35E-18
  1.34E+01  3.21E-14  2.57E-30  0.00E+00  3.41E-33  0.00E+00  9.17E-15  1.73E-14  5.61E-15  7.32E-18
  1.33E+01  3.31E-14  1.74E-30  0.00E+00  2.25E-33  0.00E+00  9.04E-15  1.75E-14  6.50E-15  7.29E-18
  1.32E+01  3.46E-14  1.18E-30  0.00E+00  1.47E-33  0.00E+00  8.91E-15  1.77E-14  8.02E-15  7.27E-18
  1.31E+01  3.72E-14  7.87E-31  0.00E+00  9.54E-34  0.00E+00  8.78E-15  1.79E-14  1.05E-14  7.24E-18
  1.29E+01  4.86E-14  3.43E-31  0.00E+00  3.91E-34  0.00E+00  8.54E-15  1.84E-14  2.17E-14  7.18E-18
  1.28E+01  5.89E-14  2.25E-31  0.00E+00  2.48E-34  0.00E+00  8.43E-15  1.87E-14  3.18E-14  7.15E-18
  1.27E+01  6.58E-14  1.46E-31  0.00E+00  1.57E-34  0.00E+00  8.31E-15  1.90E-14  3.84E-14  7.12E-18
  1.26E+01  6.06E-14  9.45E-32  0.00E+00  9.81E-35  0.00E+00  8.20E-15  1.93E-14  3.31E-14  7.09E-18
  1.25E+01  5.21E-14  6.06E-32  0.00E+00  6.09E-35  0.00E+00  8.09E-15  1.97E-14  2.43E-14  7.06E-18
  1.22E+01  4.73E-14  0.00E+00  0.00E+00  1.41E-35  0.00E+00  7.75E-15  2.06E-14  1.89E-14  6.97E-18
  1.21E+01  5.04E-14  0.00E+00  0.00E+00  8.46E-36  0.00E+00  7.64E-15  2.09E-14  2.18E-14  6.91E-18
  1.20E+01  5.29E-14  0.00E+00  0.00E+00  5.04E-36  0.00E+00  7.53E-15  2.14E-14  2.40E-14  6.85E-18
  1.19E+01  5.32E-14  0.00E+00  0.00E+00  2.99E-36  0.00E+00  7.43E-15  2.18E-14  2.40E-14  6.80E-18
  1.18E+01  5.33E-14  0.00E+00  0.00E+00  1.76E-36  0.00E+00  7.32E-15  2.22E-14  2.38E-14  6.74E-18
  1.17E+01  5.62E-14  0.00E+00  0.00E+00  1.02E-36  0.00E+00  7.22E-15  2.26E-14  2.65E-14  6.68E-18
  1.16E+01  6.41E-14  0.00E+00  0.00E+00  5.88E-37  0.00E+00  7.15E-15  2.29E-14  3.41E-14  6.63E-18
  1.15E+01  8.27E-14  0.00E+00  0.00E+00  3.34E-37  0.00E+00  9.81E-15  2.32E-14  4.97E-14  6.57E-18
  1.14E+01  1.05E-13  0.00E+00  0.00E+00  1.88E-37  0.00E+00  7.12E-15  2.35E-14  7.47E-14  6.51E-18
  1.13E+01  1.22E-13  0.00E+00  0.00E+00  1.04E-37  0.00E+00  6.95E-15  2.39E-14  9.10E-14  6.45E-18
  1.12E+01  1.04E-13  0.00E+00  0.00E+00  5.76E-38  0.00E+00  6.83E-15  2.44E-14  7.32E-14  6.40E-18
  1.11E+01  7.80E-14  0.00E+00  0.00E+00  3.13E-38  0.00E+00  6.72E-15  2.48E-14  4.64E-14  6.34E-18
  1.09E+01  5.14E-14  0.00E+00  0.00E+00  9.01E-39  0.00E+00  6.54E-15  2.57E-14  1.92E-14  6.23E-18
  1.05E+01  4.07E-14  0.00E+00  0.00E+00  6.50E-40  0.00E+00  6.19E-15  2.83E-14  6.29E-15  6.00E-18
  1.00E+01  3.79E-14  0.00E+00  0.00E+00  0.00E+00  0.00E+00  5.78E-15  2.91E-14  3.11E-15  5.71E-18
  9.80E+00  3.74E-14  0.00E+00  0.00E+00  0.00E+00  0.00E+00  5.62E-15  2.91E-14  2.68E-15  5.60E-18
  9.60E+00  3.70E-14  0.00E+00  0.00E+00  0.00E+00  0.00E+00  5.47E-15  2.90E-14  2.46E-15  5.48E-18
  9.50E+00  3.64E-14  0.00E+00  0.00E+00  0.00E+00  0.00E+00  5.39E-15  2.86E-14  2.42E-15  5.43E-18
  9.40E+00  3.56E-14  0.00E+00  0.00E+00  0.00E+00  0.00E+00  5.32E-15  2.79E-14  2.42E-15  5.37E-18
  9.20E+00  3.25E-14  0.00E+00  0.00E+00  0.00E+00  0.00E+00  5.17E-15  2.48E-14  2.57E-15  5.25E-18
  8.90E+00  2.69E-14  0.00E+00  0.00E+00  0.00E+00  0.00E+00  4.95E-15  1.82E-14  3.75E-15  5.08E-18
  8.70E+00  2.77E-14  0.00E+00  0.00E+00  0.00E+00  0.00E+00  4.81E-15  1.45E-14  8.42E-15  4.97E-18
  8.60E+00  3.04E-14  0.00E+00  0.00E+00  0.00E+00  0.00E+00  4.73E-15  1.30E-14  1.27E-14  4.91E-18
  8.50E+00  2.53E-14  0.00E+00  0.00E+00  0.00E+00  0.00E+00  4.66E-15  1.17E-14  9.01E-15  4.85E-18
  8.40E+00  2.14E-14  0.00E+00  0.00E+00  0.00E+00  0.00E+00  4.59E-15  1.04E-14  6.42E-15  4.80E-18
  8.20E+00  1.86E-14  0.00E+00  0.00E+00  0.00E+00  0.00E+00  4.45E-15  7.64E-15  6.48E-15  4.68E-18
  8.00E+00  1.87E-14  0.00E+00  0.00E+00  0.00E+00  0.00E+00  4.30E-15  4.97E-15  9.43E-15  4.57E-18
  7.90E+00  2.00E-14  0.00E+00  0.00E+00  0.00E+00  0.00E+00  4.23E-15  4.08E-15  1.17E-14  4.51E-18
  7.80E+00  2.14E-14  0.00E+00  0.00E+00  0.00E+00  0.00E+00  4.15E-15  3.24E-15  1.40E-14  4.45E-18
  7.70E+00  2.16E-14  0.00E+00  0.00E+00  0.00E+00  0.00E+00  4.07E-15  2.60E-15  1.49E-14  4.40E-18
  7.60E+00  1.99E-14  0.00E+00  0.00E+00  0.00E+00  0.00E+00  4.00E-15  2.15E-15  1.38E-14  4.34E-18
  7.50E+00  1.70E-14  0.00E+00  0.00E+00  0.00E+00  0.00E+00  3.92E-15  1.76E-15  1.13E-14  4.28E-18
  7.30E+00  1.21E-14  0.00E+00  0.00E+00  0.00E+00  0.00E+00  3.77E-15  1.40E-15  6.89E-15  4.10E-18
  7.20E+00  1.07E-14  0.00E+00  0.00E+00  0.00E+00  0.00E+00  3.69E-15  1.32E-15  5.68E-15  3.98E-18
  7.10E+00  1.04E-14  0.00E+00  0.00E+00  0.00E+00  0.00E+00  3.62E-15  1.25E-15  5.51E-15  3.86E-18
  7.00E+00  1.24E-14  0.00E+00  0.00E+00  0.00E+00  0.00E+00  3.54E-15  1.21E-15  7.65E-15  3.75E-18
  6.90E+00  9.01E-15  0.00E+00  0.00E+00  0.00E+00  0.00E+00  3.46E-15  1.17E-15  4.38E-15  3.63E-18
  6.80E+00  7.86E-15  0.00E+00  0.00E+00  0.00E+00  0.00E+00  3.39E-15  1.14E-15  3.33E-15  3.52E-18
  6.60E+00  7.42E-15  0.00E+00  0.00E+00  0.00E+00  0.00E+00  3.23E-15  1.08E-15  3.11E-15  3.31E-18
  6.40E+00  8.81E-15  0.00E+00  0.00E+00  0.00E+00  0.00E+00  3.07E-15  1.02E-15  4.72E-15  3.11E-18
  6.30E+00  1.14E-14  0.00E+00  0.00E+00  0.00E+00  0.00E+00  2.95E-15  9.93E-16  7.41E-15  3.01E-18
  6.20E+00  1.39E-14  0.00E+00  0.00E+00  0.00E+00  0.00E+00  2.92E-15  9.63E-16  1.00E-14  2.92E-18
  6.10E+00  1.09E-14  0.00E+00  0.00E+00  0.00E+00  0.00E+00  2.84E-15  9.31E-16  7.11E-15  2.82E-18
  5.90E+00  6.52E-15  0.00E+00  0.00E+00  0.00E+00  0.00E+00  2.68E-15  8.70E-16  2.97E-15  2.64E-18
  5.50E+00  5.41E-15  0.00E+00  0.00E+00  0.00E+00  0.00E+00  2.37E-15  7.68E-16  2.28E-15  2.31E-18
  5.30E+00  6.55E-15  0.00E+00  0.00E+00  0.00E+00  0.00E+00  2.21E-15  7.29E-16  3.61E-15  2.15E-18
  5.20E+00  8.59E-15  0.00E+00  0.00E+00  0.00E+00  0.00E+00  2.13E-15  7.10E-16  5.74E-15  2.08E-18
  5.10E+00  1.06E-14  0.00E+00  0.00E+00  0.00E+00  0.00E+00  2.05E-15  6.93E-16  7.87E-15  2.01E-18
  5.00E+00  8.11E-15  0.00E+00  0.00E+00  0.00E+00  0.00E+00  1.98E-15  6.77E-16  5.46E-15  1.94E-18
  4.80E+00  4.73E-15  0.00E+00  0.00E+00  0.00E+00  0.00E+00  1.82E-15  6.50E-16  2.27E-15  1.80E-18
  4.50E+00  3.70E-15  0.00E+00  0.00E+00  0.00E+00  0.00E+00  1.58E-15  6.14E-16  1.50E-15  1.61E-18
  4.00E+00  3.14E-15  0.00E+00  0.00E+00  0.00E+00  0.00E+00  1.22E-15  5.57E-16  1.36E-15  1.78E-18
  3.80E+00  3.01E-15  0.00E+00  0.00E+00  0.00E+00  0.00E+00  1.08E-15  5.32E-16  1.40E-15  1.84E-18
  3.60E+00  3.02E-15  0.00E+00  0.00E+00  0.00E+00  0.00E+00  9.53E-16  5.04E-16  1.57E-15  1.91E-18
  3.40E+00  4.41E-15  0.00E+00  0.00E+00  0.00E+00  0.00E+00  8.30E-16  4.74E-16  3.10E-15  1.96E-18
  3.30E+00  9.30E-15  0.00E+00  0.00E+00  0.00E+00  0.00E+00  7.71E-16  4.58E-16  8.07E-15  1.99E-18
  3.20E+00  3.92E-15  0.00E+00  0.00E+00  0.00E+00  0.00E+00  7.14E-16  4.39E-16  2.76E-15  2.02E-18
  3.15E+00  3.07E-15  0.00E+00  0.00E+00  0.00E+00  0.00E+00  6.86E-16  4.30E-16  1.96E-15  2.03E-18
  3.10E+00  2.69E-15  0.00E+00  0.00E+00  0.00E+00  0.00E+00  6.58E-16  4.20E-16  1.61E-15  2.04E-18
  3.08E+00  2.60E-15  0.00E+00  0.00E+00  0.00E+00  0.00E+00  6.48E-16  4.16E-16  1.53E-15  2.05E-18
  3.05E+00  2.48E-15  0.00E+00  0.00E+00  0.00E+00  0.00E+00  6.32E-16  4.11E-16  1.44E-15  2.05E-18
  3.00E+00  2.35E-15  0.00E+00  0.00E+00  0.00E+00  0.00E+00  6.05E-16  4.01E-16  1.34E-15  2.07E-18
  2.90E+00  2.16E-15  0.00E+00  0.00E+00  0.00E+00  0.00E+00  5.54E-16  3.81E-16  1.23E-15  2.09E-18
  2.80E+00  2.03E-15  0.00E+00  0.00E+00  0.00E+00  0.00E+00  5.04E-16  3.61E-16  1.16E-15  2.10E-18
  2.60E+00  1.79E-15  0.00E+00  0.00E+00  0.00E+00  0.00E+00  4.09E-16  3.17E-16  1.07E-15  2.25E-18
  2.50E+00  1.68E-15  0.00E+00  0.00E+00  0.00E+00  0.00E+00  3.65E-16  2.94E-16  1.02E-15  2.38E-18
  2.20E+00  1.33E-15  0.00E+00  0.00E+00  0.00E+00  0.00E+00  2.43E-16  2.22E-16  8.66E-16  2.81E-18
  2.16E+00  1.28E-15  0.00E+00  0.00E+00  0.00E+00  0.00E+00  2.28E-16  2.12E-16  8.43E-16  2.87E-18
  2.00E+00  1.09E-15  0.00E+00  0.00E+00  0.00E+00  0.00E+00  1.74E-16  1.72E-16  7.48E-16  3.10E-18
  1.66E+00  6.99E-16  0.00E+00  0.00E+00  0.00E+00  0.00E+00  8.27E-17  9.40E-17  5.23E-16  3.58E-18
  1.65E+00  6.86E-16  0.00E+00  0.00E+00  0.00E+00  0.00E+00  8.01E-17  9.14E-17  5.14E-16  3.59E-18
  1.25E+00  2.80E-16  0.00E+00  0.00E+00  0.00E+00  0.00E+00  1.90E-17  2.54E-17  2.35E-16  3.44E-18
  1.23E+00  2.67E-16  0.00E+00  0.00E+00  0.00E+00  0.00E+00  1.77E-17  2.38E-17  2.25E-16  3.42E-18
  1.13E+00  1.85E-16  0.00E+00  0.00E+00  0.00E+00  0.00E+00  1.00E-17  1.40E-17  1.61E-16  3.31E-18
  1.00E+00  1.04E-16  0.00E+00  0.00E+00  0.00E+00  0.00E+00  4.20E-18  6.13E-18  9.39E-17  3.14E-18
  9.50E-01  7.95E-17  0.00E+00  0.00E+00  0.00E+00  0.00E+00  2.81E-18  4.16E-18  7.25E-17  3.03E-18
  9.30E-01  7.07E-17  0.00E+00  0.00E+00  0.00E+00  0.00E+00  2.36E-18  3.52E-18  6.48E-17  2.99E-18
  9.20E-01  6.65E-17  0.00E+00  0.00E+00  0.00E+00  0.00E+00  2.16E-18  3.23E-18  6.11E-17  2.97E-18
  9.10E-01  6.25E-17  0.00E+00  0.00E+00  0.00E+00  0.00E+00  1.97E-18  2.95E-18  5.75E-17  2.94E-18
  9.00E-01  5.86E-17  0.00E+00  0.00E+00  0.00E+00  0.00E+00  1.79E-18  2.69E-18  5.41E-17  2.92E-18
  8.90E-01  5.48E-17  0.00E+00  0.00E+00  0.00E+00  0.00E+00  1.62E-18  2.45E-18  5.07E-17  2.90E-18
  8.80E-01  5.12E-17  0.00E+00  0.00E+00  0.00E+00  0.00E+00  1.47E-18  2.23E-18  4.75E-17  2.87E-18
  8.70E-01  4.78E-17  0.00E+00  0.00E+00  0.00E+00  0.00E+00  1.33E-18  2.02E-18  4.44E-17  2.85E-18
  8.60E-01  4.45E-17  0.00E+00  0.00E+00  0.00E+00  0.00E+00  1.19E-18  1.82E-18  4.15E-17  2.83E-18
  8.50E-01  4.13E-17  0.00E+00  0.00E+00  0.00E+00  0.00E+00  1.07E-18  1.64E-18  3.86E-17  2.80E-18
  8.40E-01  3.83E-17  0.00E+00  0.00E+00  0.00E+00  0.00E+00  9.60E-19  1.48E-18  3.59E-17  2.78E-18
  8.33E-01  3.63E-17  0.00E+00  0.00E+00  0.00E+00  0.00E+00  8.87E-19  1.37E-18  3.40E-17  2.76E-18
  8.20E-01  3.27E-17  0.00E+00  0.00E+00  0.00E+00  0.00E+00  7.63E-19  1.19E-18  3.08E-17  2.73E-18
  8.10E-01  3.01E-17  0.00E+00  0.00E+00  0.00E+00  0.00E+00  6.77E-19  1.06E-18  2.84E-17  2.71E-18
  8.00E-01  2.77E-17  0.00E+00  0.00E+00  0.00E+00  0.00E+00  5.98E-19  9.38E-19  2.62E-17  2.68E-18
  7.90E-01  2.54E-17  0.00E+00  0.00E+00  0.00E+00  0.00E+00  5.27E-19  8.31E-19  2.40E-17  2.66E-18
